# Output from CTFFind version 4.1.9, run on 2020-01-17 09:46:11
# Input file: /home/wendy/Documents/apoferritin_data/inter.mrc ; Number of micrographs: 1
# Pixel size: 0.750 Angstroms ; acceleration voltage: 300.0 keV ; spherical aberration: 0.00 mm ; amplitude contrast: 0.07
# Box size: 512 pixels ; min. res.: 30.0 Angstroms ; max. res.: 5.0 Angstroms ; min. def.: 5000.0 um; max. def. 50000.0 um; num. frames averaged: 3
# 6 lines per micrograph: #1 - spatial frequency (1/Angstroms); #2 - 1D rotational average of spectrum (assuming no astigmatism); #3 - 1D rotational average of spectrum; #4 - CTF fit; #5 - cross-correlation between spectrum and CTF fit; #6 - 2sigma of expected cross correlation of noise
0.000000 0.001395 0.002789 0.004184 0.005579 0.006974 0.008368 0.009763 0.011158 0.012552 0.013947 0.015342 0.016736 0.018131 0.019526 0.020921 0.022315 0.023710 0.025105 0.026499 0.027894 0.029289 0.030683 0.032078 0.033473 0.034868 0.036262 0.037657 0.039052 0.040446 0.041841 0.043236 0.044630 0.046025 0.047420 0.048815 0.050209 0.051604 0.052999 0.054393 0.055788 0.057183 0.058577 0.059972 0.061367 0.062762 0.064156 0.065551 0.066946 0.068340 0.069735 0.071130 0.072524 0.073919 0.075314 0.076709 0.078103 0.079498 0.080893 0.082287 0.083682 0.085077 0.086471 0.087866 0.089261 0.090656 0.092050 0.093445 0.094840 0.096234 0.097629 0.099024 0.100418 0.101813 0.103208 0.104603 0.105997 0.107392 0.108787 0.110181 0.111576 0.112971 0.114365 0.115760 0.117155 0.118550 0.119944 0.121339 0.122734 0.124128 0.125523 0.126918 0.128312 0.129707 0.131102 0.132497 0.133891 0.135286 0.136681 0.138075 0.139470 0.140865 0.142259 0.143654 0.145049 0.146444 0.147838 0.149233 0.150628 0.152022 0.153417 0.154812 0.156206 0.157601 0.158996 0.160391 0.161785 0.163180 0.164575 0.165969 0.167364 0.168759 0.170153 0.171548 0.172943 0.174338 0.175732 0.177127 0.178522 0.179916 0.181311 0.182706 0.184100 0.185495 0.186890 0.188285 0.189679 0.191074 0.192469 0.193863 0.195258 0.196653 0.198047 0.199442 0.200837 0.202232 0.203626 0.205021 0.206416 0.207810 0.209205 0.210600 0.211994 0.213389 0.214784 0.216179 0.217573 0.218968 0.220363 0.221757 0.223152 0.224547 0.225941 0.227336 0.228731 0.230126 0.231520 0.232915 0.234310 0.235704 0.237099 0.238494 0.239888 0.241283 0.242678 0.244073 0.245467 0.246862 0.248257 0.249651 0.251046 0.252441 0.253835 0.255230 0.256625 0.258020 0.259414 0.260809 0.262204 0.263598 0.264993 0.266388 0.267782 0.269177 0.270572 0.271967 0.273361 0.274756 0.276151 0.277545 0.278940 0.280335 0.281729 0.283124 0.284519 0.285914 0.287308 0.288703 0.290098 0.291492 0.292887 0.294282 0.295676 0.297071 0.298466 0.299861 0.301255 0.302650 0.304045 0.305439 0.306834 0.308229 0.309623 0.311018 0.312413 0.313808 0.315202 0.316597 0.317992 0.319386 0.320781 0.322176 0.323570 0.324965 0.326360 0.327755 0.329149 0.330544 0.331939 0.333333 0.334728 0.336123 0.337517 0.338912 0.340307 0.341702 0.343096 0.344491 0.345886 0.347280 0.348675 0.350070 0.351464 0.352859 0.354254 0.355649 0.357043 0.358438 0.359833 0.361227 0.362622 0.364017 0.365411 0.366806 0.368201 0.369596 0.370990 0.372385 0.373780 0.375174 0.376569 0.377964 0.379358 0.380753 0.382148 0.383543 0.384937 0.386332 0.387727 0.389121 0.390516 0.391911 0.393305 0.394700 0.396095 0.397490 0.398884 0.400279 0.401674 0.403068 0.404463 0.405858 0.407252 0.408647 0.410042 0.411437 0.412831 0.414226 0.415621 0.417015 0.418410 0.419805 0.421199 0.422594 0.423989 0.425384 0.426778 0.428173 0.429568 0.430962 0.432357 0.433752 0.435146 0.436541 0.437936 0.439331 0.440725 0.442120 0.443515 0.444909 0.446304 0.447699 0.449093 0.450488 0.451883 0.453278 0.454672 0.456067 0.457462 0.458856 0.460251 0.461646 0.463040 0.464435 0.465830 0.467225 0.468619 0.470014 0.471409 0.472803 0.474198 0.475593 0.476987 0.478382 0.479777 0.481172 0.482566 0.483961 0.485356 0.486750 0.488145 0.489540 0.490934 0.492329 0.493724 0.495119 0.496513 0.497908 0.499303 0.500697 0.502092 0.503487 0.504881
       0.19748        0.20318        0.20795        0.20965        0.21037        0.21099        0.21121        0.21148        0.21166        0.21178        0.21191        0.21197        0.21207        0.21213        0.21217        0.21223        0.21226        0.21231        0.21233        0.21236        0.21239        0.21241        0.21244        0.20943        0.18952       -0.03900       -0.12931       -0.56571       -0.79914       -0.62668       -0.84781       -0.85424       -0.81434       -0.82610       -0.60505       -0.36244       -0.09230        0.09925        0.25094        0.19675        0.27121        0.44491        0.38355        0.29977        0.07816       -0.05147        0.07730        0.06187        0.04071        0.21464        0.37606        0.41708        0.38376        0.33347        0.22505        0.22589        0.19520        0.08261        0.02086        0.11991        0.34585        0.33492        0.27876        0.20933        0.19834        0.18224        0.00229        0.08826        0.35048        0.40742        0.45570        0.38188        0.17998        0.09263        0.02279        0.05852        0.31099        0.38681        0.27665        0.17139        0.12877        0.15727        0.17373        0.23805        0.31631        0.19445        0.05714        0.04440        0.08926        0.20481        0.27293        0.22630        0.23725        0.21124        0.14302        0.18283        0.23122        0.26433        0.27798        0.16254        0.17323        0.31134        0.22618        0.14566        0.23201        0.28487        0.20776        0.18887        0.25138        0.12133        0.07332        0.24746        0.34334        0.27266        0.21995        0.22109        0.23575        0.29306        0.22943        0.18152        0.23051        0.16785        0.12831        0.19650        0.17078        0.15167        0.25583        0.26100        0.16016        0.20199        0.22470        0.14370        0.18549        0.25203        0.31181        0.27814        0.16602        0.19440        0.21756        0.18239        0.16444        0.18928        0.21971        0.18524        0.20014        0.25700        0.25717        0.22027        0.15798        0.15278        0.24094        0.27460        0.21006        0.18232        0.20182        0.23875        0.24751        0.23790        0.21832        0.22787        0.30182        0.23217        0.11688        0.18651        0.23046        0.18479        0.23946        0.24599        0.14530        0.14647        0.19328        0.16984        0.20598        0.23141        0.20697        0.27256        0.27364        0.18822        0.20134        0.20750        0.21366        0.22926        0.23842        0.24501        0.18128        0.14377        0.21426        0.22449        0.20070        0.23960        0.24434        0.22765        0.20708        0.17997        0.19046        0.24259        0.26513        0.20696        0.17686        0.19546        0.19650        0.18572        0.17422        0.18077        0.17474        0.14955        0.19850        0.24672        0.23056        0.25604        0.30424        0.30974        0.26237        0.20654        0.18600        0.23401        0.24117        0.18142        0.19057        0.21504        0.20789        0.22236        0.20053        0.20621        0.20588        0.19007        0.21070        0.24164        0.20132        0.17832        0.22619        0.23771        0.24560        0.23580        0.20178        0.26673        0.25338        0.16219        0.17089        0.23625        0.25207        0.24051        0.19724        0.21078        0.22487        0.17104        0.20886        0.25717        0.23877        0.24354        0.22598        0.18858        0.19122        0.21159        0.19472        0.14305        0.17447        0.21309        0.21408        0.23229        0.20504        0.17411        0.18936        0.21008        0.22961        0.24954        0.23797        0.20686        0.20970        0.18547        0.18665        0.23038        0.19378        0.19152        0.24250        0.19434        0.17481        0.23723        0.22219        0.22601        0.21740        0.15245        0.15067        0.21901        0.22703        0.20152        0.20482        0.19075        0.16505        0.23696        0.31619        0.26339        0.26171        0.19449        0.07519        0.16431        0.21400        0.16758        0.18487        0.18472        0.25837        0.24044        0.18356        0.26070        0.24657        0.25631        0.24454        0.18443        0.23071        0.21881        0.16003        0.22947        0.22326        0.12131        0.16103        0.27925        0.25552        0.18084        0.19382        0.16275        0.19016        0.17554        0.12196        0.24788        0.18199        0.16976        0.24922        0.32533        0.33108        0.19916        0.17420        0.12970        0.13650        0.17757        0.13538        0.24464        0.31908        0.27308        0.28822        0.28776        0.18586        0.09040        0.16361        0.23689        0.16967        0.14463        0.28279        0.37054        0.23050        0.05727       -0.04895        0.09765        0.06569        0.04232        0.07607       -0.07342        0.09507       -0.04410       -0.12012        0.04606        0.14910        0.18594        0.11463
4.689825 4.567669 4.439644 4.311592 4.186439 4.059867 3.936638 3.814331 3.694413 3.576405 3.459613 3.345368 3.232674 3.122089 3.013316 2.906368 2.801546 2.698451 2.597401 2.498141 2.400872 2.305555 2.212302 2.120549 2.020342 1.433633 1.315441 0.663707 0.144883 0.351841 -0.077450 -0.208597 -0.140164 -0.152229 -0.142125 0.263250 0.675269 0.839877 0.971043 0.969603 0.786389 1.167562 0.993338 0.885784 0.423534 0.128352 0.342766 0.345726 0.219173 0.393662 0.571959 0.597835 0.598865 0.572726 0.166831 0.140688 0.184540 -0.059801 -0.152906 -0.031984 0.305190 0.184849 0.189039 0.154216 0.080023 -0.090797 -0.184905 -0.200355 0.163966 0.413194 0.390126 0.612522 0.181155 -0.083693 -0.043339 -0.026636 0.304842 0.371513 0.308536 0.067312 0.038328 0.138200 0.064377 0.040155 0.319335 0.203609 -0.154615 -0.116924 -0.143722 -0.000674 0.164471 0.067995 -0.001009 0.021234 0.045984 -0.113802 0.098248 0.138058 0.191744 0.014792 -0.032117 0.158381 0.097487 -0.138054 -0.010260 0.076188 0.103006 0.012213 0.061123 0.072397 -0.178085 -0.081968 0.315306 0.241336 0.080165 0.106437 0.136444 0.315134 0.224261 -0.003679 0.069944 0.077762 0.056506 0.080676 -0.024720 0.013437 0.187557 0.203061 -0.016727 0.027940 0.092260 -0.007578 0.003298 0.099715 0.265211 0.211342 0.043229 -0.007514 0.047071 0.090232 -0.039441 -0.013873 0.081892 0.070729 -0.028751 0.093082 0.116064 0.173757 0.028793 -0.060380 0.048868 0.013285 0.042040 -0.003760 -0.034384 -0.057772 0.118696 -0.035105 -0.073049 0.059581 0.216042 0.066913 -0.056157 0.068498 0.075054 0.021110 0.076375 0.143017 0.065645 -0.006328 0.073645 -0.015052 -0.014189 0.133759 0.051199 0.042091 0.163371 0.071272 -0.046328 0.055716 0.013122 0.036062 0.035737 -0.013910 -0.040395 -0.092856 -0.029603 0.043231 0.002598 0.044856 0.010362 0.031727 -0.002311 -0.078319 -0.116308 0.044424 0.075510 0.057550 -0.022105 0.010274 0.062338 -0.060200 -0.061265 -0.007214 0.026535 -0.075200 -0.122982 -0.028492 0.022968 0.006076 0.025654 0.112037 0.066161 -0.079533 -0.022796 -0.069201 -0.104526 -0.001461 0.025916 -0.065642 0.040819 0.010133 -0.010623 0.043016 -0.010279 -0.038253 -0.058265 0.025365 -0.082524 0.001340 -0.047814 0.006110 0.024515 -0.081040 -0.036310 0.053301 0.016659 -0.026417 -0.049219 -0.016577 0.036271 0.020112 -0.056120 -0.004457 -0.110577 -0.038108 -0.047948 -0.024725 0.096592 -0.017297 -0.064875 -0.027786 0.021837 0.043194 0.007030 -0.062823 -0.057029 -0.034929 0.078816 0.104603 0.008208 -0.094822 -0.079956 0.043126 0.079861 -0.016027 -0.027779 -0.008940 -0.075497 0.012156 0.041697 0.024390 0.120493 -0.007770 -0.024208 -0.062831 -0.172840 0.048552 0.123192 0.010838 -0.095105 0.002416 -0.027332 -0.047501 -0.021875 0.057789 0.008107 -0.033656 -0.029145 -0.019348 -0.025998 0.080160 0.021367 -0.024158 0.046431 0.010097 -0.055781 -0.091788 -0.009824 -0.028113 -0.010088 -0.090816 -0.004394 0.002965 -0.054170 0.057125 -0.001590 -0.022328 0.143131 -0.013620 0.116303 0.113104 -0.032123 -0.034657 0.011091 0.215402 0.025548 0.073194 -0.040986 0.028753 0.139771 -0.034164 -0.178338 -0.060372 0.054162 0.091452 0.063694 0.026552 0.031638 0.015969 -0.047484 -0.058196 0.250739 0.035972 0.157713 0.128278 -0.068682 -0.066362 0.157446 0.062198 0.179212 0.073559 0.216472 -0.344521 -0.190067 0.186330 0.124702 0.140497 -0.058710 0.032903 -0.000841 -0.166164 -0.162200 -0.184403 0.203548 0.078326 0.018139 -0.004722 0.036006 0.499233 -0.370534 -0.534768 0.000000
0.072396 0.075254 0.083823 0.098090 0.118031 0.143597 0.174714 0.211262 0.253065 0.299873 0.351340 0.407008 0.466280 0.528402 0.592439 0.657263 0.721530 0.783680 0.841934 0.894307 0.938628 0.972588 0.993794 0.999847 0.988448 0.957510 0.905308 0.830629 0.732943 0.612570 0.470844 0.310251 0.134525 0.051296 0.240909 0.426859 0.600768 0.753676 0.876501 0.960608 0.998474 0.984402 0.915243 0.791066 0.615687 0.396989 0.146946 0.118724 0.381317 0.620333 0.815067 0.946513 0.999442 0.964444 0.839700 0.632206 0.358197 0.042530 0.283059 0.582855 0.821036 0.966169 0.995808 0.900547 0.686829 0.377853 0.012105 0.360679 0.685892 0.912106 0.999709 0.928696 0.704078 0.357544 0.055552 0.464021 0.792690 0.976510 0.974354 0.779557 0.424452 0.022976 0.470664 0.820817 0.991635 0.937707 0.663870 0.228234 0.267875 0.702118 0.961189 0.971545 0.722421 0.273656 0.255767 0.717501 0.975174 0.946128 0.630582 0.117541 0.437132 0.856453 0.999230 0.809993 0.343834 0.245348 0.752917 0.994176 0.873674 0.426761 0.185540 0.731064 0.993743 0.861389 0.377918 0.265416 0.801948 0.999625 0.764345 0.189759 0.474082 0.926306 0.952336 0.530147 0.148435 0.759458 0.999941 0.741255 0.104067 0.590889 0.980758 0.851800 0.262684 0.473742 0.951664 0.896669 0.329389 0.431906 0.944016 0.897148 0.308690 0.471835 0.964167 0.853496 0.198945 0.587388 0.994051 0.744881 0.004947 0.755213 0.989943 0.536561 0.297305 0.923007 0.884809 0.199319 0.636908 0.999863 0.606475 0.253910 0.921059 0.867922 0.125136 0.721381 0.985245 0.440429 0.472724 0.992294 0.670665 0.228511 0.932734 0.820656 0.020282 0.846226 0.907977 0.137958 0.762629 0.952921 0.243041 0.701469 0.972433 0.296499 0.673638 0.977145 0.300270 0.683369 0.970224 0.254513 0.729224 0.947119 0.157480 0.803761 0.895941 0.007357 0.891917 0.798848 0.193773 0.968993 0.635479 0.434015 0.999770 0.389699 0.684899 0.941356 0.060362 0.896391 0.752825 0.325066 0.998722 0.413667 0.699099 0.917246 0.050941 0.954735 0.604616 0.548007 0.970335 0.085769 0.917037 0.665983 0.504764 0.975466 0.079365 0.930460 0.617116 0.582258 0.941748 0.070200 0.980704 0.442217 0.755988 0.821172 0.355295 0.992215 0.107577 0.944511 0.527692 0.716984 0.831078 0.376266 0.982471 0.005021 0.981660 0.364291 0.853461 0.657731 0.635858 0.862310 0.369588 0.973234 0.090821 0.999020 0.172896 0.956068 0.403680 0.863899 0.592694 0.741680 0.738153 0.606063 0.843270 0.470229 0.914160 0.343760 0.958184 0.233057 0.982758 0.141959 0.994529 0.072530 0.998930 0.025664 0.999942 0.001659 0.999998 0.000569 0.999963 0.022411 0.999121 0.067126 0.995187 0.134449 0.984324 0.223568 0.961229 0.332551 0.919352 0.457748 0.851324 0.593055 0.749732 0.729201 0.608280 0.853350 0.423412 0.949149 0.196307 0.997607 0.064900 0.979102 0.343274 0.876761 0.612161 0.681069 0.836080 0.395369 0.974465 0.040757 0.988670 0.340879 0.852139 0.688479 0.562202 0.929792 0.150540 0.996768 0.312416 0.846856 0.723946 0.485409 0.969747 0.019330 0.957957 0.538295 0.658811 0.908806 0.135377 0.986495 0.453421 0.709222 0.891167 0.147102 0.983602 0.493463 0.655067 0.933011 0.016202 0.942274 0.647893 0.476701 0.992558 0.255613 0.799233 0.860786 0.135824 0.964505 0.626026 0.461244 0.998277 0.359459 0.696835 0.945032 0.110279 0.847335 0.849428 0.094963 0.931813 0.747077 0.246571 0.972615 0.662396 0.344401 0.988873
1.000000 1.000000 1.000000 1.000000 1.000000 1.000000 1.000000 1.000000 1.000000 1.000000 1.000000 1.000000 1.000000 1.000000 1.000000 1.000000 1.000000 1.000000 1.000000 1.000000 1.000000 1.000000 1.000000 1.000000 0.774288 0.774288 0.774288 0.774288 0.774288 0.774288 0.774288 0.774288 0.774288 0.774288 0.774288 0.774288 0.774288 0.774288 0.774288 0.774288 0.774288 0.699510 0.693810 0.683922 0.687131 0.727410 0.737942 0.748182 0.744245 0.748200 0.802607 0.796520 0.793669 0.788556 0.780448 0.789083 0.786380 0.787118 0.785755 0.801403 0.809447 0.814376 0.824095 0.860419 0.788508 0.783524 0.774423 0.762782 0.693118 0.694411 0.724825 0.714493 0.734488 0.735364 0.689151 0.690133 0.695272 0.689146 0.718872 0.709270 0.663853 0.640857 0.606913 0.587234 0.576023 0.555747 0.510728 0.548682 0.566176 0.571883 0.544226 0.501926 0.394972 0.430964 0.450688 0.475088 0.404050 0.415630 0.449907 0.467462 0.464816 0.425507 0.516086 0.511711 0.518557 0.536627 0.525807 0.531858 0.564878 0.602321 0.578897 0.609139 0.606995 0.591161 0.586659 0.677563 0.665962 0.594822 0.660606 0.640635 0.709865 0.718578 0.754336 0.741721 0.752934 0.741372 0.770410 0.785287 0.778914 0.789588 0.758781 0.766526 0.737642 0.709529 0.698944 0.682538 0.700507 0.687483 0.648318 0.635588 0.629979 0.641163 0.630004 0.565585 0.514671 0.531323 0.500480 0.521438 0.531290 0.504312 0.569776 0.571385 0.564485 0.579516 0.512826 0.502810 0.517781 0.522039 0.530399 0.528646 0.507636 0.491970 0.493631 0.450171 0.410956 0.397425 0.413594 0.366724 0.410653 0.406799 0.399501 0.374049 0.318344 0.335081 0.363259 0.412039 0.402134 0.446037 0.413536 0.390818 0.325627 0.324492 0.305682 0.323591 0.324138 0.339689 0.325569 0.221694 0.166560 0.175245 0.098467 0.112849 0.123310 0.172264 0.136226 0.092579 0.084318 0.049502 0.165985 0.093065 0.012629 0.027777 0.026766 0.076893 0.075997 0.081912 0.057158 0.010851 0.014336 -0.033004 0.001736 -0.053278 -0.090974 -0.132478 -0.157228 -0.162744 -0.107997 -0.131846 -0.075473 -0.205682 -0.195226 -0.139257 -0.150188 -0.179922 -0.075029 -0.077985 -0.198171 -0.154049 -0.139848 -0.205147 -0.196774 -0.225281 -0.139278 -0.135001 -0.142317 -0.140051 -0.078102 -0.125534 -0.125814 -0.123316 -0.054554 -0.029665 -0.039509 -0.173899 -0.148362 -0.121473 -0.058596 -0.064786 -0.050525 0.002506 0.005404 0.009314 0.097805 0.160381 0.079113 0.078553 0.107034 0.110496 0.066419 0.033542 0.017070 -0.021497 0.024060 -0.015379 -0.016771 0.014518 0.045813 0.060338 0.057400 0.054528 0.041516 0.014087 0.008461 0.013713 0.019239 0.085380 0.085410 0.097050 0.076841 0.069758 0.071394 0.059062 0.066402 0.094540 0.100444 0.114488 0.131448 0.126806 0.128275 0.132404 0.133747 0.128083 0.105350 0.077690 0.024759 0.034727 0.055984 0.034086 0.123342 -0.032424 -0.072642 -0.084871 -0.128530 -0.088086 -0.030316 -0.006376 -0.035486 0.027298 -0.120759 -0.088500 -0.064052 -0.050257 -0.020943 -0.015312 0.035562 -0.010933 0.009234 0.010805 -0.014416 -0.033786 -0.060482 -0.114290 -0.092552 -0.107619 -0.146706 -0.152083 -0.032189 -0.094029 -0.115714 -0.104435 -0.083439 -0.184474 -0.083439 -0.083439 -0.083439 -0.083439 -0.268239 -0.101276 -0.101276 -0.101276 -0.101276 -0.238940 -0.093527 -0.093527 -0.238940 -0.098338 -0.098338 -0.098338 -0.098338 -0.219492 -0.098338 -0.098338 -0.219492 -0.078929 -0.078929 -0.206971 -0.102069 -0.102069 -0.206971 -0.102069 -0.102069 -0.170210 -0.170210
0.000000 0.000000 0.000000 0.000000 -0.000000 -0.000000 -0.000000 -0.000000 0.000000 -0.000000 0.000000 -0.000000 -0.000000 -0.000000 0.000000 0.000000 -0.000000 -0.000000 -0.000000 0.000000 0.000000 -0.000000 -0.000000 0.000000 0.298142 0.298142 0.298142 0.298142 0.298142 0.298142 0.298142 0.298142 0.298142 0.298142 0.298142 0.298142 0.298142 0.298142 0.298142 0.298142 0.298142 0.348155 0.348155 0.348155 0.348155 0.348155 0.348155 0.348155 0.348155 0.348155 0.348155 0.348155 0.348155 0.371391 0.371391 0.371391 0.371391 0.371391 0.371391 0.371391 0.371391 0.371391 0.359211 0.359211 0.359211 0.359211 0.359211 0.359211 0.359211 0.359211 0.359211 0.400000 0.400000 0.400000 0.400000 0.400000 0.400000 0.400000 0.384900 0.384900 0.384900 0.384900 0.384900 0.384900 0.384900 0.400000 0.400000 0.400000 0.400000 0.400000 0.400000 0.384900 0.384900 0.384900 0.384900 0.384900 0.384900 0.400000 0.400000 0.400000 0.400000 0.400000 0.371391 0.371391 0.371391 0.371391 0.371391 0.371391 0.384900 0.384900 0.384900 0.384900 0.384900 0.417029 0.417029 0.417029 0.417029 0.371391 0.371391 0.371391 0.371391 0.371391 0.400000 0.400000 0.400000 0.400000 0.359211 0.359211 0.359211 0.359211 0.359211 0.384900 0.384900 0.384900 0.384900 0.371391 0.371391 0.371391 0.371391 0.371391 0.371391 0.371391 0.371391 0.359211 0.359211 0.359211 0.359211 0.400000 0.400000 0.400000 0.348155 0.348155 0.348155 0.348155 0.384900 0.384900 0.384900 0.338062 0.338062 0.338062 0.338062 0.371391 0.371391 0.371391 0.328798 0.328798 0.328798 0.328798 0.371391 0.371391 0.371391 0.359211 0.359211 0.359211 0.359211 0.359211 0.359211 0.348155 0.348155 0.348155 0.348155 0.348155 0.348155 0.348155 0.348155 0.348155 0.338062 0.338062 0.338062 0.338062 0.338062 0.338062 0.328798 0.328798 0.328798 0.328798 0.328798 0.328798 0.371391 0.371391 0.320256 0.320256 0.320256 0.320256 0.320256 0.320256 0.312348 0.312348 0.312348 0.359211 0.359211 0.312348 0.312348 0.312348 0.359211 0.359211 0.304997 0.304997 0.304997 0.348155 0.348155 0.298142 0.298142 0.298142 0.338062 0.338062 0.291730 0.291730 0.291730 0.338062 0.338062 0.328798 0.328798 0.285714 0.285714 0.285714 0.328798 0.328798 0.328798 0.328798 0.280056 0.280056 0.280056 0.320256 0.320256 0.320256 0.320256 0.312348 0.312348 0.269680 0.269680 0.269680 0.312348 0.312348 0.304997 0.304997 0.304997 0.304997 0.304997 0.304997 0.304997 0.304997 0.298142 0.298142 0.298142 0.298142 0.298142 0.298142 0.291730 0.291730 0.291730 0.291730 0.251976 0.251976 0.251976 0.348155 0.285714 0.285714 0.285714 0.285714 0.285714 0.285714 0.280056 0.280056 0.280056 0.280056 0.280056 0.280056 0.274721 0.274721 0.274721 0.274721 0.274721 0.274721 0.269680 0.269680 0.269680 0.269680 0.328798 0.269680 0.269680 0.264906 0.264906 0.264906 0.264906 0.264906 0.264906 0.320256 0.260378 0.260378 0.260378 0.260378 0.256074 0.256074 0.312348 0.256074 0.256074 0.256074 0.256074 0.251976 0.251976 0.304997 0.251976 0.251976 0.248069 0.248069 0.304997 0.248069 0.248069 0.244339 0.244339 0.298142 0.244339 0.244339 0.244339 0.244339 0.298142 0.240772 0.240772 0.240772 0.240772 0.291730 0.237356 0.237356 0.291730 0.234082 0.234082 0.234082 0.234082 0.285714 0.234082 0.234082 0.285714 0.230940 0.230940 0.280056 0.227921 0.227921 0.280056 0.227921 0.227921 0.274721 0.274721
