# Output from CTFFind version 4.1.9, run on 2020-01-17 09:46:11
# Input file: /home/wendy/Documents/apoferritin_data/merged.mrc ; Number of micrographs: 1
# Pixel size: 0.750 Angstroms ; acceleration voltage: 300.0 keV ; spherical aberration: 0.00 mm ; amplitude contrast: 0.07
# Box size: 512 pixels ; min. res.: 30.0 Angstroms ; max. res.: 5.0 Angstroms ; min. def.: 5000.0 um; max. def. 50000.0 um; num. frames averaged: 3
# 6 lines per micrograph: #1 - spatial frequency (1/Angstroms); #2 - 1D rotational average of spectrum (assuming no astigmatism); #3 - 1D rotational average of spectrum; #4 - CTF fit; #5 - cross-correlation between spectrum and CTF fit; #6 - 2sigma of expected cross correlation of noise
0.000000 0.001395 0.002789 0.004184 0.005579 0.006974 0.008368 0.009763 0.011158 0.012552 0.013947 0.015342 0.016736 0.018131 0.019526 0.020921 0.022315 0.023710 0.025105 0.026499 0.027894 0.029289 0.030683 0.032078 0.033473 0.034868 0.036262 0.037657 0.039052 0.040446 0.041841 0.043236 0.044630 0.046025 0.047420 0.048815 0.050209 0.051604 0.052999 0.054393 0.055788 0.057183 0.058577 0.059972 0.061367 0.062762 0.064156 0.065551 0.066946 0.068340 0.069735 0.071130 0.072524 0.073919 0.075314 0.076709 0.078103 0.079498 0.080893 0.082287 0.083682 0.085077 0.086471 0.087866 0.089261 0.090656 0.092050 0.093445 0.094840 0.096234 0.097629 0.099024 0.100418 0.101813 0.103208 0.104603 0.105997 0.107392 0.108787 0.110181 0.111576 0.112971 0.114365 0.115760 0.117155 0.118550 0.119944 0.121339 0.122734 0.124128 0.125523 0.126918 0.128312 0.129707 0.131102 0.132497 0.133891 0.135286 0.136681 0.138075 0.139470 0.140865 0.142259 0.143654 0.145049 0.146444 0.147838 0.149233 0.150628 0.152022 0.153417 0.154812 0.156206 0.157601 0.158996 0.160391 0.161785 0.163180 0.164575 0.165969 0.167364 0.168759 0.170153 0.171548 0.172943 0.174338 0.175732 0.177127 0.178522 0.179916 0.181311 0.182706 0.184100 0.185495 0.186890 0.188285 0.189679 0.191074 0.192469 0.193863 0.195258 0.196653 0.198047 0.199442 0.200837 0.202232 0.203626 0.205021 0.206416 0.207810 0.209205 0.210600 0.211994 0.213389 0.214784 0.216179 0.217573 0.218968 0.220363 0.221757 0.223152 0.224547 0.225941 0.227336 0.228731 0.230126 0.231520 0.232915 0.234310 0.235704 0.237099 0.238494 0.239888 0.241283 0.242678 0.244073 0.245467 0.246862 0.248257 0.249651 0.251046 0.252441 0.253835 0.255230 0.256625 0.258020 0.259414 0.260809 0.262204 0.263598 0.264993 0.266388 0.267782 0.269177 0.270572 0.271967 0.273361 0.274756 0.276151 0.277545 0.278940 0.280335 0.281729 0.283124 0.284519 0.285914 0.287308 0.288703 0.290098 0.291492 0.292887 0.294282 0.295676 0.297071 0.298466 0.299861 0.301255 0.302650 0.304045 0.305439 0.306834 0.308229 0.309623 0.311018 0.312413 0.313808 0.315202 0.316597 0.317992 0.319386 0.320781 0.322176 0.323570 0.324965 0.326360 0.327755 0.329149 0.330544 0.331939 0.333333 0.334728 0.336123 0.337517 0.338912 0.340307 0.341702 0.343096 0.344491 0.345886 0.347280 0.348675 0.350070 0.351464 0.352859 0.354254 0.355649 0.357043 0.358438 0.359833 0.361227 0.362622 0.364017 0.365411 0.366806 0.368201 0.369596 0.370990 0.372385 0.373780 0.375174 0.376569 0.377964 0.379358 0.380753 0.382148 0.383543 0.384937 0.386332 0.387727 0.389121 0.390516 0.391911 0.393305 0.394700 0.396095 0.397490 0.398884 0.400279 0.401674 0.403068 0.404463 0.405858 0.407252 0.408647 0.410042 0.411437 0.412831 0.414226 0.415621 0.417015 0.418410 0.419805 0.421199 0.422594 0.423989 0.425384 0.426778 0.428173 0.429568 0.430962 0.432357 0.433752 0.435146 0.436541 0.437936 0.439331 0.440725 0.442120 0.443515 0.444909 0.446304 0.447699 0.449093 0.450488 0.451883 0.453278 0.454672 0.456067 0.457462 0.458856 0.460251 0.461646 0.463040 0.464435 0.465830 0.467225 0.468619 0.470014 0.471409 0.472803 0.474198 0.475593 0.476987 0.478382 0.479777 0.481172 0.482566 0.483961 0.485356 0.486750 0.488145 0.489540 0.490934 0.492329 0.493724 0.495119 0.496513 0.497908 0.499303 0.500697 0.502092 0.503487 0.504881
       0.15382        0.15382        0.15382        0.15382        0.15382        0.15382        0.15382        0.15382        0.15382        0.15382        0.15382        0.15382        0.15382        0.15382        0.15382        0.15382        0.15382        0.15382        0.15382        0.15382        0.15382        0.15382        0.15382        0.15133        0.02778       -0.21222       -0.09302       -0.33007       -0.25821       -0.06585       -0.33533       -0.23484       -0.17679       -0.38337       -0.26727        0.20458        0.19519        0.11508        0.27074        0.07789        0.16988        0.32640        0.14081        0.09594        0.17198        0.25226        0.13352       -0.01048        0.05311        0.14461        0.15469        0.21704        0.36394        0.31598        0.04434       -0.02768        0.15530        0.19277        0.05401        0.11202        0.26554        0.21837        0.12459        0.07663        0.14864        0.27797        0.15198        0.05182        0.12983        0.16256        0.21042        0.28888        0.21891        0.10290        0.15835        0.18420        0.21565        0.23545        0.18706        0.16863        0.12563        0.11624        0.08723        0.07643        0.19419        0.19338        0.08246        0.04670        0.10124        0.18895        0.19965        0.15861        0.19664        0.17816        0.13109        0.15468        0.10814        0.06990        0.15439        0.17745        0.13850        0.16198        0.21129        0.23024        0.15451        0.11830        0.12132        0.14527        0.20525        0.14403        0.08737        0.22258        0.17446        0.04691        0.15246        0.18962        0.10159        0.13317        0.16205        0.15673        0.18030        0.21831        0.22311        0.13695        0.08329        0.15135        0.19570        0.18102        0.18264        0.15656        0.09138        0.08237        0.17385        0.27921        0.20166        0.07068        0.12443        0.19195        0.11681        0.07377        0.15119        0.19241        0.22239        0.21737        0.15017        0.16171        0.15021        0.11606        0.13052        0.12669        0.10414        0.14109        0.15787        0.13709        0.15559        0.20323        0.20247        0.13957        0.11775        0.17656        0.23308        0.17625        0.11234        0.17959        0.19110        0.10774        0.17149        0.19954        0.15180        0.16131        0.13904        0.11336        0.16116        0.16579        0.13450        0.16020        0.16400        0.13548        0.15811        0.15100        0.12108        0.12827        0.13252        0.16697        0.18161        0.14788        0.13860        0.12654        0.11960        0.14676        0.21993        0.20948        0.12916        0.15084        0.18581        0.17307        0.13228        0.11871        0.16205        0.15863        0.12299        0.12718        0.16225        0.14491        0.12161        0.15440        0.19077        0.16214        0.10087        0.13445        0.17127        0.15091        0.16855        0.18452        0.17800        0.15721        0.14455        0.13197        0.13427        0.17755        0.17231        0.13576        0.13621        0.16568        0.17682        0.16541        0.15456        0.17874        0.16928        0.13771        0.14367        0.16699        0.20137        0.18487        0.13511        0.16099        0.15384        0.13298        0.15563        0.15808        0.16271        0.16595        0.16248        0.16384        0.13092        0.13592        0.16715        0.16367        0.16529        0.19924        0.17894        0.12132        0.13205        0.14563        0.14483        0.14688        0.11718        0.10565        0.13528        0.15127        0.13231        0.15315        0.15878        0.14413        0.14464        0.13021        0.13546        0.16904        0.15420        0.12033        0.13820        0.16356        0.17196        0.16676        0.16647        0.16037        0.11338        0.11955        0.14174        0.13532        0.14675        0.15244        0.18372        0.19181        0.16333        0.17755        0.14495        0.13291        0.08548        0.12296        0.24384        0.19120        0.17523        0.13998        0.09153        0.14528        0.15769        0.12887        0.11448        0.12616        0.15582        0.11271        0.12116        0.18222        0.14411        0.18017        0.18602        0.14908        0.17800        0.15316        0.17390        0.20642        0.11746        0.10401        0.13748        0.17992        0.18040        0.15266        0.13623        0.08452        0.12407        0.15003        0.11670        0.16973        0.11303        0.09519        0.14849        0.19484        0.19300        0.13137        0.14339        0.15821        0.15054        0.11699        0.08397        0.19251        0.20355        0.14226        0.21017        0.23746        0.19506        0.08494        0.10453        0.17836        0.09632        0.14614        0.20895        0.17799        0.14047        0.11473        0.03379        0.03605        0.10063        0.08949        0.05722       -0.07856        0.04793        0.15207        0.04096        0.04314        0.01174        0.17141        0.42618
6.711973 6.503509 6.298184 6.095999 5.896953 5.701048 5.508281 5.318654 5.132167 4.948819 4.768611 4.591542 4.417613 4.246823 4.079173 3.914663 3.753292 3.595061 3.439969 3.288017 3.139204 2.993531 2.850998 2.711604 2.427514 1.080403 1.491091 1.071377 0.625194 1.354293 0.465824 0.499922 0.863555 -0.213158 -0.014222 1.438498 1.469866 0.839782 1.149752 0.895432 0.272306 1.237063 0.714291 0.520382 0.385244 0.674090 0.401823 -0.101506 -0.072315 0.096398 0.294180 0.190556 0.809657 0.193349 -0.154883 -0.370217 -0.102309 0.035115 -0.441509 -0.613990 -0.332443 0.282187 -0.169857 -0.677636 -0.778648 0.519788 -0.116628 -0.303360 -0.111732 -0.127151 0.265540 0.380454 0.278832 -0.096210 0.004530 0.047158 0.068727 0.324408 0.085991 0.079789 -0.021441 0.052799 -0.002194 -0.062747 0.083635 0.123344 -0.069359 -0.127960 -0.137403 0.065928 0.250371 0.062291 0.185859 0.775916 -0.784673 -0.113730 0.621205 0.546730 0.145698 -0.036790 0.144936 0.053965 -0.035747 -0.217361 0.032239 0.194739 0.144815 0.069761 -0.442991 -0.298267 -0.240233 0.022926 0.171478 -0.222241 -0.080720 0.011012 -0.028573 -0.228764 0.039864 1.211614 2.157156 -1.291904 -2.409994 -0.405685 1.338722 0.998335 -0.543680 -0.398650 -0.655678 -2.942814 -0.062488 -0.134386 -0.064979 0.538699 0.293206 -0.053474 -0.037734 0.115545 0.025627 -0.028573 0.016710 0.073793 0.135478 0.197411 0.102872 0.085195 0.408822 -8.226342 -8.920002 0.187254 -0.271076 0.023346 0.029522 -0.125305 0.044858 0.166126 0.111794 0.009388 -0.124592 -0.039462 0.274011 0.127472 -0.095813 0.201794 0.235454 -0.058344 -0.120389 0.275833 0.043919 0.053012 0.141489 -0.080863 0.009214 0.161608 0.013782 -0.014225 0.082095 0.089511 0.032032 -0.028362 -0.052684 -0.049510 -0.006981 -0.019196 0.151317 0.078879 0.015618 -0.017628 -0.062894 -0.011990 0.057004 0.250552 0.012310 -0.079665 0.078093 0.013075 0.072206 -0.069082 0.005914 0.031796 -0.049141 -0.116887 0.011084 0.026880 -0.065111 -0.057978 0.037593 0.064551 -0.070630 -0.173354 -0.041438 0.039600 0.026106 0.046423 0.148911 0.073766 -0.061485 -0.082347 -0.045517 0.027777 0.050931 0.116004 -0.075150 -0.047686 0.048439 0.082562 -0.047609 0.022043 0.033925 0.054823 -0.126617 -0.011567 0.101100 0.069048 0.140220 -0.042522 0.074453 -0.048886 0.009155 0.059548 0.081494 0.096184 -0.045250 0.029123 0.009669 -0.068828 -0.029622 -0.010932 0.006871 0.073101 0.122622 -0.069183 -0.152934 0.021299 0.018979 0.019898 0.086322 -0.036120 -0.034855 0.001628 0.086625 -0.001459 0.020643 0.011836 0.032838 0.016418 -0.035017 -0.005810 0.073878 -0.042341 -0.088394 0.022789 0.063871 0.130374 -0.018991 0.098310 0.023002 -0.104216 -0.042537 0.014496 -0.047902 0.001669 0.011738 0.019142 0.107379 0.056605 0.172827 -0.021797 -0.051186 -0.232470 0.196555 0.273040 -0.001020 0.049903 0.026029 -0.197586 0.084416 0.184706 0.077288 0.007064 0.043637 0.037075 -0.089412 -0.015172 0.068470 0.058632 0.075172 -0.041723 -0.116200 0.009726 -0.050989 0.051908 -0.017250 -0.198408 -0.046447 -0.066503 -0.031468 0.048999 -0.024732 0.090357 -0.116240 0.004847 0.029766 -0.104762 0.125668 0.012540 -0.059275 -0.056128 0.197086 0.200084 -0.086877 -0.113648 0.189088 0.018537 0.044156 -0.218768 -0.115784 0.176991 -0.129421 0.109777 0.037316 0.073823 -0.207493 -0.414750 -0.123766 -0.284868 -0.108810 0.025394 -0.341153 0.179967 0.030402 -0.008450 -0.320658 0.095892 -0.339552 -0.237780 -0.152315 -0.127840 0.327070 0.256364 0.254046 -0.204733 0.587610
0.072396 0.075283 0.083941 0.098355 0.118501 0.144329 0.175762 0.212678 0.254896 0.302158 0.354109 0.410276 0.470045 0.532640 0.597101 0.662265 0.726753 0.788962 0.847068 0.899035 0.942644 0.975539 0.995285 0.999451 0.985721 0.952014 0.896632 0.818427 0.716967 0.592715 0.447189 0.283100 0.104448 0.083440 0.273955 0.459346 0.630972 0.779672 0.896262 0.972138 0.999969 0.974438 0.892979 0.756435 0.569566 0.341321 0.084774 0.183318 0.443399 0.674438 0.855652 0.968518 0.998915 0.939176 0.789784 0.560426 0.270155 0.053558 0.376958 0.663305 0.877072 0.988656 0.978996 0.843410 0.593928 0.259472 0.116506 0.481011 0.778727 0.960627 0.992705 0.863282 0.587325 0.206477 0.215881 0.604351 0.884816 0.999128 0.918326 0.651312 0.246439 0.215391 0.635750 0.919441 0.996855 0.842664 0.485701 0.006325 0.479689 0.848275 0.999205 0.885082 0.528540 0.021303 0.496936 0.875863 0.998781 0.820728 0.387720 0.171312 0.680371 0.971188 0.940377 0.589356 0.030988 0.543050 0.926466 0.973494 0.657589 0.089276 0.518086 0.926277 0.966594 0.613288 0.003048 0.613047 0.970828 0.907962 0.442216 0.226080 0.795578 0.998902 0.731451 0.110940 0.567857 0.969885 0.886712 0.350164 0.371368 0.902052 0.954292 0.489645 0.247117 0.850474 0.976103 0.542139 0.209995 0.842499 0.974292 0.515540 0.262943 0.881755 0.946669 0.405618 0.401554 0.948944 0.867061 0.199681 0.607571 0.998320 0.691212 0.108023 0.833507 0.956041 0.375026 0.488297 0.987178 0.734526 0.086857 0.843992 0.936811 0.280297 0.605971 0.999778 0.567162 0.342339 0.965578 0.764265 0.099766 0.879851 0.884130 0.097277 0.780558 0.948116 0.240311 0.694464 0.977395 0.329547 0.638002 0.988069 0.368004 0.619608 0.989018 0.357680 0.641680 0.981212 0.297998 0.701320 0.957646 0.186204 0.789452 0.903848 0.019883 0.888788 0.799541 0.198306 0.971524 0.622765 0.454010 0.998761 0.357787 0.713863 0.924567 0.007420 0.921081 0.708011 0.392338 0.999608 0.334759 0.761661 0.873679 0.155463 0.981981 0.505986 0.648518 0.929848 0.053732 0.965485 0.543798 0.636665 0.924805 0.096032 0.981600 0.457020 0.730754 0.853310 0.279571 0.999712 0.227557 0.888222 0.658874 0.577182 0.926847 0.159566 0.998285 0.268283 0.887525 0.629032 0.640255 0.875197 0.315398 0.989852 0.029925 0.980728 0.350002 0.871421 0.614737 0.692676 0.809541 0.475434 0.932591 0.246323 0.990998 0.025456 0.996993 0.173915 0.964765 0.344686 0.908229 0.484543 0.839671 0.594477 0.769133 0.677403 0.704301 0.737047 0.650750 0.777066 0.612210 0.800500 0.590998 0.809385 0.588245 0.804550 0.604115 0.785548 0.637749 0.750665 0.687228 0.697145 0.749237 0.621443 0.818798 0.519783 0.888867 0.388924 0.950113 0.227151 0.990858 0.035683 0.997570 0.179946 0.955948 0.408415 0.852894 0.631639 0.679422 0.824751 0.434319 0.957735 0.128089 0.999173 0.213896 0.922522 0.550303 0.714426 0.826610 0.383801 0.983069 0.031144 0.968322 0.461247 0.756931 0.813871 0.366881 0.992139 0.130119 0.924066 0.612930 0.595359 0.936391 0.073611 0.976546 0.491246 0.685307 0.901771 0.132706 0.982651 0.489913 0.665052 0.924698 0.047727 0.955082 0.609346 0.527272 0.982114 0.181345 0.847313 0.809457 0.236183 0.987779 0.528809 0.570489 0.981086 0.221411 0.797821 0.880438 0.058517 0.927668 0.737731 0.284293 0.985525 0.592971 0.449195 0.999949 0.472282 0.557495 0.995201 0.390465 0.616856 0.988161 0.354602 0.633443
1.000000 1.000000 1.000000 1.000000 1.000000 1.000000 1.000000 1.000000 1.000000 1.000000 1.000000 1.000000 1.000000 1.000000 1.000000 1.000000 1.000000 1.000000 1.000000 1.000000 1.000000 1.000000 1.000000 1.000000 0.155255 0.155255 0.155255 0.155255 0.155255 0.155255 0.155255 0.155255 0.155255 0.155255 0.155255 0.155255 0.155255 0.155255 0.155255 0.155255 0.155255 0.253850 0.179744 0.189324 0.220304 0.246149 0.269983 0.278365 0.271070 0.183594 0.075474 0.100344 0.111807 0.130283 0.090629 0.099811 0.212831 0.171583 0.228666 0.259289 0.261662 0.318725 0.294814 0.312669 0.328857 0.339566 0.306940 0.339344 0.366409 0.360745 0.295538 0.306596 0.401014 0.461936 0.469566 0.459209 0.462788 0.420092 0.623165 0.646444 0.609270 0.636305 0.579205 0.556907 0.432241 0.332614 0.311428 0.300145 0.258175 0.232180 0.234491 0.150898 0.075551 0.094899 0.108745 0.142715 0.053488 0.065680 0.148552 0.117057 0.096499 0.087461 -0.037504 -0.109421 -0.089321 -0.129366 -0.151353 -0.146168 -0.112024 -0.119752 -0.085122 -0.039115 -0.090241 0.014449 -0.017424 -0.024161 0.012296 -0.008647 -0.062164 -0.007059 0.040483 0.135179 0.174108 0.159732 0.171888 0.236006 0.169704 0.186940 0.137456 0.144972 0.108049 0.193033 0.248209 0.280588 0.286116 0.319558 0.271546 0.210145 0.260164 0.202152 0.246275 0.188162 0.229746 0.320785 0.327042 0.331004 0.341058 0.327984 0.338387 0.301193 0.190779 0.247340 0.215006 0.230638 0.235191 0.295735 0.264348 0.304706 0.335796 0.288930 0.332841 0.294905 0.322518 0.297381 0.310962 0.314882 0.308573 0.299815 0.389470 0.421845 0.398514 0.453857 0.421892 0.368345 0.246809 0.260192 0.329660 0.268082 0.289407 0.273261 0.276720 0.286722 0.254886 0.332075 0.345022 0.346212 0.257562 0.214940 0.197750 0.143882 0.194159 0.203477 0.181790 0.109788 0.079202 0.039034 0.071534 0.082614 0.007266 0.103592 0.079901 0.066117 -0.017716 -0.072492 -0.089087 0.066335 0.019394 -0.045938 -0.074570 -0.025547 0.007123 0.023040 0.024887 -0.121996 -0.089636 0.068611 0.056502 0.060139 -0.080241 -0.057538 0.107255 0.132189 0.129242 0.055285 0.091843 0.116809 0.118573 0.167884 0.185748 0.149797 0.180834 0.233937 0.152727 0.152112 0.140867 0.100412 0.163879 0.209671 0.235554 0.224969 0.226622 0.214405 0.205303 0.160294 0.366439 0.356347 0.335295 0.319360 0.299070 0.327244 0.313925 0.327989 0.306349 0.309391 0.307585 0.340059 0.306428 0.275096 0.259140 0.247165 0.240846 0.261318 0.262252 0.310233 0.307966 0.302166 0.239541 0.295503 0.220369 0.211585 0.192206 0.177617 0.167772 0.178863 0.181748 0.135107 0.180902 0.233775 0.330956 0.326872 0.309664 0.319001 0.316809 0.266675 0.217775 0.207179 0.175544 0.154173 0.123337 0.342521 0.122481 0.138419 0.133845 0.120090 0.149886 0.162537 0.174832 0.186113 0.166466 0.180390 0.143359 0.203754 0.177496 0.200065 0.209695 0.200037 0.182181 0.205937 0.220010 0.116135 0.159374 0.157433 0.161796 0.134705 0.102112 0.079783 0.224879 0.009488 -0.014011 -0.051428 -0.051220 0.146963 -0.100897 -0.117238 -0.095573 -0.096997 -0.106992 -0.108961 -0.086765 -0.087242 -0.086162 -0.209373 -0.086162 -0.086162 -0.106276 -0.106276 -0.175596 -0.106276 -0.106276 -0.125400 -0.140462 -0.140462 -0.140462 -0.140462 -0.168659 -0.092242 -0.092242 -0.168659 -0.092242 -0.092242 -0.168659 -0.088038 -0.088038 -0.185133 -0.061091 -0.061091 -0.061091 -0.061091 -0.185133 -0.043108 -0.043108 -0.235916 -0.235916
0.000000 0.000000 0.000000 0.000000 -0.000000 0.000000 0.000000 0.000000 -0.000000 0.000000 -0.000000 -0.000000 0.000000 0.000000 0.000000 0.000000 -0.000000 -0.000000 0.000000 -0.000000 -0.000000 0.000000 -0.000000 0.000000 0.298142 0.298142 0.298142 0.298142 0.298142 0.298142 0.298142 0.298142 0.298142 0.298142 0.298142 0.298142 0.298142 0.298142 0.298142 0.298142 0.298142 0.359211 0.359211 0.359211 0.359211 0.359211 0.359211 0.359211 0.359211 0.359211 0.359211 0.359211 0.359211 0.359211 0.359211 0.359211 0.359211 0.359211 0.359211 0.359211 0.359211 0.359211 0.384900 0.384900 0.384900 0.384900 0.384900 0.384900 0.384900 0.384900 0.371391 0.371391 0.371391 0.371391 0.371391 0.371391 0.371391 0.371391 0.417029 0.417029 0.417029 0.417029 0.417029 0.417029 0.371391 0.371391 0.371391 0.371391 0.371391 0.371391 0.371391 0.417029 0.417029 0.417029 0.417029 0.417029 0.371391 0.371391 0.371391 0.371391 0.371391 0.371391 0.400000 0.400000 0.400000 0.400000 0.400000 0.384900 0.384900 0.384900 0.384900 0.384900 0.384900 0.384900 0.384900 0.384900 0.384900 0.400000 0.400000 0.400000 0.400000 0.359211 0.359211 0.359211 0.359211 0.359211 0.384900 0.384900 0.384900 0.384900 0.384900 0.384900 0.384900 0.384900 0.371391 0.371391 0.371391 0.371391 0.371391 0.371391 0.371391 0.371391 0.359211 0.359211 0.359211 0.359211 0.359211 0.359211 0.359211 0.359211 0.400000 0.400000 0.400000 0.348155 0.348155 0.348155 0.348155 0.384900 0.384900 0.384900 0.371391 0.371391 0.371391 0.328798 0.328798 0.328798 0.328798 0.371391 0.371391 0.371391 0.359211 0.359211 0.359211 0.359211 0.359211 0.359211 0.348155 0.348155 0.348155 0.348155 0.348155 0.348155 0.348155 0.348155 0.348155 0.338062 0.338062 0.338062 0.338062 0.338062 0.338062 0.328798 0.328798 0.328798 0.328798 0.328798 0.328798 0.371391 0.371391 0.320256 0.320256 0.320256 0.320256 0.320256 0.320256 0.359211 0.359211 0.312348 0.312348 0.312348 0.312348 0.312348 0.312348 0.359211 0.359211 0.304997 0.304997 0.304997 0.348155 0.348155 0.298142 0.298142 0.298142 0.338062 0.338062 0.338062 0.338062 0.291730 0.291730 0.291730 0.328798 0.328798 0.285714 0.285714 0.285714 0.328798 0.328798 0.328798 0.328798 0.320256 0.320256 0.274721 0.274721 0.274721 0.320256 0.320256 0.312348 0.312348 0.312348 0.312348 0.312348 0.312348 0.264906 0.264906 0.264906 0.304997 0.304997 0.304997 0.304997 0.304997 0.304997 0.298142 0.298142 0.298142 0.298142 0.298142 0.298142 0.291730 0.291730 0.291730 0.291730 0.291730 0.291730 0.285714 0.285714 0.285714 0.285714 0.285714 0.285714 0.285714 0.285714 0.280056 0.280056 0.280056 0.280056 0.280056 0.280056 0.274721 0.274721 0.338062 0.274721 0.274721 0.269680 0.269680 0.269680 0.269680 0.269680 0.269680 0.269680 0.269680 0.328798 0.264906 0.264906 0.264906 0.264906 0.260378 0.260378 0.260378 0.260378 0.320256 0.256074 0.256074 0.256074 0.256074 0.256074 0.256074 0.312348 0.251976 0.251976 0.251976 0.251976 0.304997 0.248069 0.248069 0.248069 0.248069 0.304997 0.244339 0.244339 0.244339 0.244339 0.298142 0.244339 0.244339 0.240772 0.240772 0.291730 0.240772 0.240772 0.291730 0.237356 0.237356 0.237356 0.237356 0.285714 0.234082 0.234082 0.285714 0.234082 0.234082 0.285714 0.230940 0.230940 0.280056 0.227921 0.227921 0.227921 0.227921 0.280056 0.225018 0.225018 0.274721 0.274721
